Export File Created with QBlade v0.96 64bit on 09.07.2020 at 19:00:53
_TSR4.5 solidity=0.10,_TSR4.5 solidity=0.10,_TSR4.5 solidity=0.10 ua,_TSR4.5 solidity=0.10 ua,_TSR4.5 solidity=0.14 6panel,_TSR4.5 solidity=0.14 6panel,_TSR4.5 solidity=0.14 6panel UAVL,_TSR4.5 solidity=0.14 6panel UAVL,_TSR4.5 solidity=0.14 ua 4-2,_TSR4.5 solidity=0.14 ua 4-2,
Azimuthal Position Blade 1 [deg],Total Tangential Load Blade 1 [m],Azimuthal Position Blade 1 [deg],Total Tangential Load Blade 1 [m],Azimuthal Position Blade 1 [deg],Total Tangential Load Blade 1 [m],Azimuthal Position Blade 1 [deg],Total Tangential Load Blade 1 [m],Azimuthal Position Blade 1 [deg],Total Tangential Load Blade 1 [m],
2.70000e+02,1.22407e+02,2.70000e+02,7.50835e+01,2.70000e+02,1.52398e+02,2.70000e+02,1.06524e+02,2.70000e+02,1.10814e+02,
2.75000e+02,1.16843e+02,2.75000e+02,1.08411e+02,2.75000e+02,1.49028e+02,2.75000e+02,1.31215e+02,2.75000e+02,1.32695e+02,
2.80000e+02,1.23532e+02,2.80000e+02,1.21951e+02,2.80000e+02,1.55987e+02,2.80000e+02,1.45690e+02,2.80000e+02,1.46541e+02,
2.85000e+02,1.23057e+02,2.85000e+02,1.09710e+02,2.85000e+02,1.55028e+02,2.85000e+02,1.43986e+02,2.85000e+02,1.47188e+02,
2.90000e+02,1.19289e+02,2.90000e+02,1.13233e+02,2.90000e+02,1.50168e+02,2.90000e+02,1.41911e+02,2.90000e+02,1.43941e+02,
2.95000e+02,1.12956e+02,2.95000e+02,1.02698e+02,2.95000e+02,1.41835e+02,2.95000e+02,1.34011e+02,2.95000e+02,1.37056e+02,
3.00000e+02,1.04291e+02,3.00000e+02,9.41158e+01,3.00000e+02,1.30127e+02,3.00000e+02,1.22455e+02,3.00000e+02,1.25490e+02,
3.05000e+02,9.40265e+01,3.05000e+02,8.29338e+01,3.05000e+02,1.16570e+02,3.05000e+02,1.08776e+02,3.05000e+02,1.11841e+02,
3.10000e+02,8.25888e+01,3.10000e+02,6.36829e+01,3.10000e+02,1.01311e+02,3.10000e+02,8.79059e+01,3.10000e+02,9.40466e+01,
3.15000e+02,7.02136e+01,3.15000e+02,5.55172e+01,3.15000e+02,8.48778e+01,3.15000e+02,6.96465e+01,3.15000e+02,6.98209e+01,
3.20000e+02,5.70922e+01,3.20000e+02,4.23053e+01,3.20000e+02,6.75241e+01,3.20000e+02,5.20518e+01,3.20000e+02,5.63494e+01,
3.25000e+02,4.34833e+01,3.25000e+02,2.98705e+01,3.25000e+02,4.96263e+01,3.25000e+02,3.57683e+01,3.25000e+02,3.62141e+01,
3.30000e+02,2.99009e+01,3.30000e+02,2.25580e+01,3.30000e+02,3.18452e+01,3.30000e+02,2.32307e+01,3.30000e+02,2.43291e+01,
3.35000e+02,1.67038e+01,3.35000e+02,1.14756e+01,3.35000e+02,1.46160e+01,3.35000e+02,1.09055e+01,3.35000e+02,1.22875e+01,
3.40000e+02,4.34790e+00,3.40000e+02,8.14490e-01,3.40000e+02,-1.45435e+00,3.40000e+02,-2.83317e+00,3.40000e+02,-1.67249e+00,
3.45000e+02,-6.88535e+00,3.45000e+02,-8.78615e+00,3.45000e+02,-1.52442e+01,3.45000e+02,-1.57209e+01,3.45000e+02,-1.49155e+01,
3.50000e+02,-1.55080e+01,3.50000e+02,-1.60513e+01,3.50000e+02,-2.58543e+01,3.50000e+02,-2.55304e+01,3.50000e+02,-2.51831e+01,
3.55000e+02,-2.08255e+01,3.55000e+02,-2.07303e+01,3.55000e+02,-3.24183e+01,3.55000e+02,-3.18930e+01,3.55000e+02,-3.17570e+01,
0.00000e+00,-2.28179e+01,0.00000e+00,-2.25803e+01,0.00000e+00,-3.46857e+01,0.00000e+00,-3.42491e+01,0.00000e+00,-3.42531e+01,
5.00000e+00,-2.18098e+01,5.00000e+00,-2.17470e+01,5.00000e+00,-3.31532e+01,5.00000e+00,-3.29162e+01,5.00000e+00,-3.29006e+01,
1.00000e+01,-1.80973e+01,1.00000e+01,-1.84438e+01,1.00000e+01,-2.82565e+01,1.00000e+01,-2.82339e+01,1.00000e+01,-2.81880e+01,
1.50000e+01,-1.08734e+01,1.50000e+01,-1.20352e+01,1.50000e+01,-1.98663e+01,1.50000e+01,-2.01006e+01,1.50000e+01,-1.98189e+01,
2.00000e+01,-5.27929e-01,2.00000e+01,-2.79821e+00,2.00000e+01,-7.01364e+00,2.00000e+01,-7.52779e+00,2.00000e+01,-6.94401e+00,
2.50000e+01,1.23123e+01,2.50000e+01,8.58770e+00,2.50000e+01,8.74334e+00,2.50000e+01,7.92831e+00,2.50000e+01,8.93018e+00,
3.00000e+01,2.71281e+01,3.00000e+01,2.22040e+01,3.00000e+01,2.75380e+01,3.00000e+01,2.64678e+01,3.00000e+01,2.79547e+01,
3.50000e+01,4.08765e+01,3.50000e+01,3.53849e+01,3.50000e+01,4.71396e+01,3.50000e+01,4.58603e+01,3.50000e+01,4.77409e+01,
4.00000e+01,5.42130e+01,4.00000e+01,4.82622e+01,4.00000e+01,6.51668e+01,4.00000e+01,6.36886e+01,4.00000e+01,6.61600e+01,
4.50000e+01,6.79357e+01,4.50000e+01,6.14420e+01,4.50000e+01,8.26763e+01,4.50000e+01,8.13872e+01,4.50000e+01,8.38726e+01,
5.00000e+01,8.05805e+01,5.00000e+01,7.39889e+01,5.00000e+01,9.94088e+01,5.00000e+01,9.89577e+01,5.00000e+01,1.02113e+02,
5.50000e+01,9.21339e+01,5.50000e+01,8.84376e+01,5.50000e+01,1.14963e+02,5.50000e+01,1.14628e+02,5.50000e+01,1.17795e+02,
6.00000e+01,1.02563e+02,6.00000e+01,1.09131e+02,6.00000e+01,1.28824e+02,6.00000e+01,1.31001e+02,6.00000e+01,1.35668e+02,
6.50000e+01,1.11292e+02,6.50000e+01,1.18454e+02,6.50000e+01,1.40236e+02,6.50000e+01,1.60266e+02,6.50000e+01,1.63250e+02,
7.00000e+01,1.18288e+02,7.00000e+01,1.46029e+02,7.00000e+01,1.49295e+02,7.00000e+01,1.75061e+02,7.00000e+01,1.84923e+02,
7.50000e+01,1.23571e+02,7.50000e+01,1.37465e+02,7.50000e+01,1.55815e+02,7.50000e+01,2.05247e+02,7.50000e+01,2.08100e+02,
8.00000e+01,1.26990e+02,8.00000e+01,1.70957e+02,8.00000e+01,1.59925e+02,8.00000e+01,2.06215e+02,8.00000e+01,2.08039e+02,
8.50000e+01,1.28619e+02,8.50000e+01,1.29083e+02,8.50000e+01,1.61702e+02,8.50000e+01,2.11812e+02,8.50000e+01,2.09160e+02,
9.00000e+01,1.28410e+02,9.00000e+01,1.72731e+02,9.00000e+01,1.61197e+02,9.00000e+01,2.12406e+02,9.00000e+01,2.16394e+02,
9.50000e+01,1.26379e+02,9.50000e+01,1.30550e+02,9.50000e+01,1.58446e+02,9.50000e+01,2.10973e+02,9.50000e+01,1.92790e+02,
1.00000e+02,1.22649e+02,1.00000e+02,1.47056e+02,1.00000e+02,1.53473e+02,1.00000e+02,1.95706e+02,1.00000e+02,1.99894e+02,
1.05000e+02,1.17327e+02,1.05000e+02,1.21675e+02,1.05000e+02,1.46416e+02,1.05000e+02,1.87647e+02,1.05000e+02,1.64908e+02,
1.10000e+02,1.10568e+02,1.10000e+02,1.17379e+02,1.10000e+02,1.37493e+02,1.10000e+02,1.53634e+02,1.10000e+02,1.70256e+02,
1.15000e+02,1.02548e+02,1.15000e+02,1.02004e+02,1.15000e+02,1.26899e+02,1.15000e+02,1.49358e+02,1.15000e+02,1.28402e+02,
1.20000e+02,9.33198e+01,1.20000e+02,9.14768e+01,1.20000e+02,1.14875e+02,1.20000e+02,1.20896e+02,1.20000e+02,1.24225e+02,
1.25000e+02,8.32592e+01,1.25000e+02,7.34573e+01,1.25000e+02,1.01734e+02,1.25000e+02,1.05213e+02,1.25000e+02,1.04242e+02,
1.30000e+02,7.25308e+01,1.30000e+02,6.13374e+01,1.30000e+02,8.75444e+01,1.30000e+02,7.86960e+01,1.30000e+02,7.78656e+01,
1.35000e+02,6.13928e+01,1.35000e+02,4.83256e+01,1.35000e+02,7.28551e+01,1.35000e+02,6.52630e+01,1.35000e+02,6.45638e+01,
1.40000e+02,4.99026e+01,1.40000e+02,3.96211e+01,1.40000e+02,5.77218e+01,1.40000e+02,5.12850e+01,1.40000e+02,5.08127e+01,
1.45000e+02,3.84617e+01,1.45000e+02,2.97172e+01,1.45000e+02,4.27775e+01,1.45000e+02,3.94760e+01,1.45000e+02,3.94216e+01,
1.50000e+02,2.72711e+01,1.50000e+02,2.25803e+01,1.50000e+02,2.79395e+01,1.50000e+02,2.69282e+01,1.50000e+02,2.70165e+01,
1.55000e+02,1.63951e+01,1.55000e+02,1.41391e+01,1.55000e+02,1.29869e+01,1.55000e+02,1.31598e+01,1.55000e+02,1.32113e+01,
1.60000e+02,5.35569e+00,1.60000e+02,4.89014e+00,1.60000e+02,-7.72955e-02,1.60000e+02,6.60820e-01,1.60000e+02,6.40741e-01,
1.65000e+02,-2.94722e+00,1.65000e+02,-2.17980e+00,1.65000e+02,-9.07667e+00,1.65000e+02,-8.54969e+00,1.65000e+02,-8.53241e+00,
1.70000e+02,-7.93508e+00,1.70000e+02,-7.23176e+00,1.70000e+02,-1.36869e+01,1.70000e+02,-1.37710e+01,1.70000e+02,-1.36646e+01,
1.75000e+02,-9.51690e+00,1.75000e+02,-9.49358e+00,1.75000e+02,-1.41567e+01,1.75000e+02,-1.49287e+01,1.75000e+02,-1.48310e+01,
1.80000e+02,-7.02813e+00,1.80000e+02,-8.84950e+00,1.80000e+02,-8.78041e+00,1.80000e+02,-1.04693e+01,1.80000e+02,-1.03775e+01,
1.85000e+02,-1.34332e-01,1.85000e+02,-3.83625e+00,1.85000e+02,2.15868e+00,1.85000e+02,-1.16915e+00,1.85000e+02,-9.27824e-01,
1.90000e+02,8.31469e+00,1.90000e+02,3.60303e+00,1.90000e+02,1.66936e+01,1.90000e+02,1.16739e+01,1.90000e+02,1.22617e+01,
1.95000e+02,2.11470e+01,1.95000e+02,1.34638e+01,1.95000e+02,2.94471e+01,1.95000e+02,2.49850e+01,1.95000e+02,2.57661e+01,
2.00000e+02,3.01031e+01,2.00000e+02,2.36748e+01,2.00000e+02,3.74217e+01,2.00000e+02,3.89645e+01,2.00000e+02,4.17638e+01,
2.05000e+02,3.50111e+01,2.05000e+02,3.45283e+01,2.05000e+02,4.34689e+01,2.05000e+02,5.85614e+01,2.05000e+02,6.02643e+01,
2.10000e+02,4.18130e+01,2.10000e+02,4.80658e+01,2.10000e+02,5.20918e+01,2.10000e+02,6.56435e+01,2.10000e+02,6.74802e+01,
2.15000e+02,5.03485e+01,2.15000e+02,6.27503e+01,2.15000e+02,6.25545e+01,2.15000e+02,9.46951e+01,2.15000e+02,9.99247e+01,
2.20000e+02,5.95203e+01,2.20000e+02,7.83673e+01,2.20000e+02,7.35879e+01,2.20000e+02,1.06135e+02,2.20000e+02,1.02859e+02,
2.25000e+02,6.91386e+01,2.25000e+02,8.41160e+01,2.25000e+02,8.50755e+01,2.25000e+02,1.26903e+02,2.25000e+02,1.22591e+02,
2.30000e+02,7.86010e+01,2.30000e+02,9.78953e+01,2.30000e+02,9.67131e+01,2.30000e+02,1.44352e+02,2.30000e+02,1.36004e+02,
2.35000e+02,8.78745e+01,2.35000e+02,1.02824e+02,2.35000e+02,1.07902e+02,2.35000e+02,1.58563e+02,2.35000e+02,1.44409e+02,
2.40000e+02,9.64343e+01,2.40000e+02,1.06787e+02,2.40000e+02,1.19167e+02,2.40000e+02,1.64524e+02,2.40000e+02,1.45154e+02,
2.45000e+02,1.03728e+02,2.45000e+02,1.11531e+02,2.45000e+02,1.28793e+02,2.45000e+02,1.67231e+02,2.45000e+02,1.48681e+02,
2.50000e+02,1.09944e+02,2.50000e+02,1.13798e+02,2.50000e+02,1.36451e+02,2.50000e+02,1.68432e+02,2.50000e+02,1.51723e+02,
2.55000e+02,1.14778e+02,2.55000e+02,1.16079e+02,2.55000e+02,1.42126e+02,2.55000e+02,1.70510e+02,2.55000e+02,1.55643e+02,
2.60000e+02,1.18464e+02,2.60000e+02,1.17083e+02,2.60000e+02,1.45854e+02,2.60000e+02,1.72634e+02,2.60000e+02,1.57807e+02,
2.65000e+02,1.20680e+02,2.65000e+02,1.16815e+02,2.65000e+02,1.47306e+02,2.65000e+02,1.72362e+02,2.65000e+02,1.57128e+02,
2.70000e+02,1.21479e+02,2.70000e+02,1.15104e+02,2.70000e+02,1.46138e+02,2.70000e+02,1.59431e+02,2.70000e+02,1.53469e+02,
2.75000e+02,1.20294e+02,2.75000e+02,1.11972e+02,2.75000e+02,1.42481e+02,2.75000e+02,1.54460e+02,2.75000e+02,1.47443e+02,
2.80000e+02,1.16734e+02,2.80000e+02,1.08258e+02,2.80000e+02,1.37140e+02,2.80000e+02,1.46511e+02,2.80000e+02,1.41543e+02,
2.85000e+02,1.12042e+02,2.85000e+02,1.03740e+02,2.85000e+02,1.29176e+02,2.85000e+02,1.39461e+02,2.85000e+02,1.36191e+02,
2.90000e+02,1.05047e+02,2.90000e+02,9.71196e+01,2.90000e+02,1.19913e+02,2.90000e+02,1.28999e+02,2.90000e+02,1.27351e+02,
2.95000e+02,9.70129e+01,2.95000e+02,8.87896e+01,2.95000e+02,1.10386e+02,2.95000e+02,1.15608e+02,2.95000e+02,1.16133e+02,
3.00000e+02,8.79898e+01,3.00000e+02,7.91005e+01,3.00000e+02,9.97068e+01,3.00000e+02,1.01311e+02,3.00000e+02,1.02825e+02,
3.05000e+02,7.79054e+01,3.05000e+02,6.12214e+01,3.05000e+02,8.61722e+01,3.05000e+02,7.55835e+01,3.05000e+02,7.99562e+01,
3.10000e+02,6.64255e+01,3.10000e+02,5.55500e+01,3.10000e+02,7.02897e+01,3.10000e+02,6.87408e+01,3.10000e+02,6.82524e+01,
3.15000e+02,5.43846e+01,3.15000e+02,4.14326e+01,3.15000e+02,5.41163e+01,3.15000e+02,4.51990e+01,3.15000e+02,4.96329e+01,
3.20000e+02,4.38660e+01,3.20000e+02,3.31918e+01,3.20000e+02,4.05841e+01,3.20000e+02,3.62816e+01,3.20000e+02,4.07804e+01,
3.25000e+02,3.91915e+01,3.25000e+02,3.15654e+01,3.25000e+02,3.53773e+01,3.25000e+02,3.01411e+01,3.25000e+02,3.28828e+01,
3.30000e+02,3.84759e+01,3.30000e+02,3.74916e+01,3.30000e+02,3.54150e+01,3.30000e+02,3.16819e+01,3.30000e+02,3.54916e+01,
3.35000e+02,2.47706e+01,3.35000e+02,2.00868e+01,3.35000e+02,2.79710e+01,3.35000e+02,2.50928e+01,3.35000e+02,2.79902e+01,
3.40000e+02,1.11313e+01,3.40000e+02,6.66984e+00,3.40000e+02,1.06352e+01,3.40000e+02,8.97961e+00,3.40000e+02,1.56063e+01,
3.45000e+02,6.30005e+00,3.45000e+02,4.50693e+00,3.45000e+02,4.02446e+00,3.45000e+02,4.52172e+00,3.45000e+02,1.02343e+01,
3.50000e+02,-3.30296e+00,3.50000e+02,-5.38453e+00,3.50000e+02,-5.70253e+00,3.50000e+02,-2.92994e+00,3.50000e+02,-4.07066e+00,
3.55000e+02,-1.03228e+01,3.55000e+02,-1.16408e+01,3.55000e+02,-1.74216e+01,3.55000e+02,-1.34516e+01,3.55000e+02,-9.87011e+00,
0.00000e+00,-1.80176e+01,0.00000e+00,-1.87326e+01,0.00000e+00,-2.59810e+01,0.00000e+00,-2.14388e+01,0.00000e+00,-1.82154e+01,
5.00000e+00,-2.20136e+01,5.00000e+00,-2.19282e+01,5.00000e+00,-3.24090e+01,5.00000e+00,-3.14088e+01,5.00000e+00,-2.96572e+01,
1.00000e+01,-2.20699e+01,1.00000e+01,-2.19903e+01,1.00000e+01,-3.38907e+01,1.00000e+01,-3.33149e+01,1.00000e+01,-3.33129e+01,
1.50000e+01,-1.83752e+01,1.50000e+01,-1.85088e+01,1.50000e+01,-3.09140e+01,1.50000e+01,-3.11593e+01,1.50000e+01,-3.16042e+01,
2.00000e+01,-1.00643e+01,2.00000e+01,-1.08697e+01,2.00000e+01,-2.35351e+01,2.00000e+01,-2.41219e+01,2.00000e+01,-2.46322e+01,
2.50000e+01,1.59987e+00,2.50000e+01,-3.15012e-01,2.50000e+01,-1.00263e+01,2.50000e+01,-1.04091e+01,2.50000e+01,-1.07734e+01,
3.00000e+01,1.61310e+01,3.00000e+01,1.27120e+01,3.00000e+01,6.97151e+00,3.00000e+01,6.39579e+00,3.00000e+01,6.66161e+00,
3.50000e+01,3.14063e+01,3.50000e+01,2.69853e+01,3.50000e+01,2.70893e+01,3.50000e+01,2.60343e+01,3.50000e+01,2.70231e+01,
4.00000e+01,4.54110e+01,4.00000e+01,4.04604e+01,4.00000e+01,4.75929e+01,4.00000e+01,4.61329e+01,4.00000e+01,4.74074e+01,
4.50000e+01,5.93547e+01,4.50000e+01,5.34057e+01,4.50000e+01,6.62291e+01,4.50000e+01,6.43291e+01,4.50000e+01,6.60124e+01,
5.00000e+01,7.29507e+01,5.00000e+01,6.66160e+01,5.00000e+01,8.37112e+01,5.00000e+01,8.19558e+01,5.00000e+01,8.32365e+01,
5.50000e+01,8.51990e+01,5.50000e+01,7.83090e+01,5.50000e+01,1.00420e+02,5.50000e+01,9.93375e+01,5.50000e+01,1.00815e+02,
6.00000e+01,9.61805e+01,6.00000e+01,1.00092e+02,6.00000e+01,1.15466e+02,6.00000e+01,1.14279e+02,6.00000e+01,1.16260e+02,
6.50000e+01,1.05582e+02,6.50000e+01,1.09434e+02,6.50000e+01,1.28264e+02,6.50000e+01,1.34184e+02,6.50000e+01,1.36553e+02,
7.00000e+01,1.13187e+02,7.00000e+01,1.32048e+02,7.00000e+01,1.38753e+02,7.00000e+01,1.55970e+02,7.00000e+01,1.58419e+02,
7.50000e+01,1.19089e+02,7.50000e+01,1.38362e+02,7.50000e+01,1.46815e+02,7.50000e+01,1.74603e+02,7.50000e+01,1.83545e+02,
8.00000e+01,1.23246e+02,8.00000e+01,1.48333e+02,8.00000e+01,1.52423e+02,8.00000e+01,1.96108e+02,8.00000e+01,1.98695e+02,
8.50000e+01,1.25556e+02,8.50000e+01,1.48875e+02,8.50000e+01,1.55553e+02,8.50000e+01,1.98807e+02,8.50000e+01,1.98986e+02,
9.00000e+01,1.25935e+02,9.00000e+01,1.51268e+02,9.00000e+01,1.56155e+02,9.00000e+01,2.01090e+02,9.00000e+01,1.97587e+02,
9.50000e+01,1.24365e+02,9.50000e+01,1.42650e+02,9.50000e+01,1.54273e+02,9.50000e+01,1.97637e+02,9.50000e+01,1.97362e+02,
1.00000e+02,1.20985e+02,1.00000e+02,1.38601e+02,1.00000e+02,1.49988e+02,1.00000e+02,1.90939e+02,1.00000e+02,1.77657e+02,
1.05000e+02,1.15936e+02,1.05000e+02,1.25775e+02,1.05000e+02,1.43412e+02,1.05000e+02,1.65380e+02,1.05000e+02,1.73601e+02,
1.10000e+02,1.09382e+02,1.10000e+02,1.14222e+02,1.10000e+02,1.34856e+02,1.10000e+02,1.63439e+02,1.10000e+02,1.45447e+02,
1.15000e+02,1.01490e+02,1.15000e+02,1.03051e+02,1.15000e+02,1.24530e+02,1.15000e+02,1.33746e+02,1.15000e+02,1.37746e+02,
1.20000e+02,9.23762e+01,1.20000e+02,9.07697e+01,1.20000e+02,1.12710e+02,1.20000e+02,1.20674e+02,1.20000e+02,1.17158e+02,
1.25000e+02,8.24070e+01,1.25000e+02,7.28746e+01,1.25000e+02,9.96772e+01,1.25000e+02,9.72348e+01,1.25000e+02,1.00262e+02,
1.30000e+02,7.17431e+01,1.30000e+02,6.14951e+01,1.30000e+02,8.56659e+01,1.30000e+02,7.73810e+01,1.30000e+02,7.68235e+01,
1.35000e+02,6.06388e+01,1.35000e+02,4.76318e+01,1.35000e+02,7.09770e+01,1.35000e+02,6.07843e+01,1.35000e+02,6.21366e+01,
1.40000e+02,4.92514e+01,1.40000e+02,3.96688e+01,1.40000e+02,5.59655e+01,1.40000e+02,4.99386e+01,1.40000e+02,5.06448e+01,
1.45000e+02,3.77856e+01,1.45000e+02,2.95896e+01,1.45000e+02,4.10469e+01,1.45000e+02,3.73290e+01,1.45000e+02,3.80594e+01,
1.50000e+02,2.65164e+01,1.50000e+02,2.22636e+01,1.50000e+02,2.60062e+01,1.50000e+02,2.46369e+01,1.50000e+02,2.54347e+01,
1.55000e+02,1.56428e+01,1.55000e+02,1.36795e+01,1.55000e+02,1.06078e+01,1.55000e+02,1.07284e+01,1.55000e+02,1.12635e+01,
1.60000e+02,4.70083e+00,1.60000e+02,4.39817e+00,1.60000e+02,-1.82560e+00,1.60000e+02,-1.31032e+00,1.60000e+02,-1.17468e+00,
1.65000e+02,-3.40158e+00,1.65000e+02,-2.71679e+00,1.65000e+02,-1.03143e+01,1.65000e+02,-1.00020e+01,1.65000e+02,-9.97956e+00,
1.70000e+02,-8.19831e+00,1.70000e+02,-7.62766e+00,1.70000e+02,-1.43455e+01,1.70000e+02,-1.45661e+01,1.70000e+02,-1.45555e+01,
1.75000e+02,-9.56131e+00,1.75000e+02,-9.70170e+00,1.75000e+02,-1.37216e+01,1.75000e+02,-1.45992e+01,1.75000e+02,-1.45690e+01,
1.80000e+02,-6.72628e+00,1.80000e+02,-8.35733e+00,1.80000e+02,-7.18259e+00,1.80000e+02,-9.09068e+00,1.80000e+02,-8.67727e+00,
1.85000e+02,3.61243e-03,1.85000e+02,-2.34417e+00,1.85000e+02,3.97574e+00,1.85000e+02,1.02839e+00,1.85000e+02,2.31081e+00,
1.90000e+02,8.85692e+00,1.90000e+02,4.46402e+00,1.90000e+02,1.69296e+01,1.90000e+02,1.36601e+01,1.90000e+02,1.48774e+01,
1.95000e+02,2.08287e+01,1.95000e+02,1.62781e+01,1.95000e+02,2.82184e+01,1.95000e+02,2.42261e+01,1.95000e+02,2.47401e+01,
2.00000e+02,2.86117e+01,2.00000e+02,2.50416e+01,2.00000e+02,3.69299e+01,2.00000e+02,3.25973e+01,2.00000e+02,3.21733e+01,
2.05000e+02,3.33487e+01,2.05000e+02,3.72400e+01,2.05000e+02,3.35535e+01,2.05000e+02,3.28320e+01,2.05000e+02,3.60401e+01,
2.10000e+02,3.82815e+01,2.10000e+02,6.04244e+01,2.10000e+02,2.69902e+01,2.10000e+02,3.36387e+01,2.10000e+02,4.75422e+01,
2.15000e+02,3.37323e+01,2.15000e+02,8.54357e+01,2.15000e+02,3.95013e+01,2.15000e+02,5.02898e+01,2.15000e+02,6.49565e+01,
2.20000e+02,4.40826e+01,2.20000e+02,9.46477e+01,2.20000e+02,5.65921e+01,2.20000e+02,6.69705e+01,2.20000e+02,6.49048e+01,
2.25000e+02,6.29177e+01,2.25000e+02,8.42416e+01,2.25000e+02,6.08683e+01,2.25000e+02,7.53499e+01,2.25000e+02,1.53673e+02,
2.30000e+02,7.30944e+01,2.30000e+02,9.05919e+01,2.30000e+02,7.01881e+01,2.30000e+02,1.03979e+02,2.30000e+02,1.38738e+02,
2.35000e+02,8.05187e+01,2.35000e+02,1.02928e+02,2.35000e+02,9.96511e+01,2.35000e+02,1.47847e+02,2.35000e+02,1.38083e+02,
2.40000e+02,8.28267e+01,2.40000e+02,1.07947e+02,2.40000e+02,1.11125e+02,2.40000e+02,1.13023e+02,2.40000e+02,1.37391e+02,
2.45000e+02,6.36498e+01,2.45000e+02,3.44324e+02,2.45000e+02,1.20186e+02,2.45000e+02,1.40659e+02,2.45000e+02,1.40498e+02,
2.50000e+02,5.58263e+01,2.50000e+02,4.93409e+01,2.50000e+02,1.25928e+02,2.50000e+02,2.79252e+02,2.50000e+02,1.47468e+02,
2.55000e+02,4.84567e+01,2.55000e+02,1.14330e+02,2.55000e+02,1.31104e+02,2.55000e+02,3.54084e+02,2.55000e+02,1.51077e+02,
2.60000e+02,7.26415e+01,2.60000e+02,9.09702e+01,2.60000e+02,1.35148e+02,2.60000e+02,1.89991e+02,2.60000e+02,1.44169e+02,
2.65000e+02,8.25124e+01,2.65000e+02,1.02921e+02,2.65000e+02,1.36659e+02,2.65000e+02,2.53187e+02,2.65000e+02,1.39322e+02,
2.70000e+02,1.10863e+02,2.70000e+02,1.10142e+02,2.70000e+02,1.21935e+02,2.70000e+02,1.62238e+02,2.70000e+02,1.17066e+02,
2.75000e+02,1.10015e+02,2.75000e+02,1.04186e+02,2.75000e+02,1.28494e+02,2.75000e+02,1.39152e+02,2.75000e+02,1.21543e+02,
2.80000e+02,1.07058e+02,2.80000e+02,1.00138e+02,2.80000e+02,1.31198e+02,2.80000e+02,1.37706e+02,2.80000e+02,1.32032e+02,
2.85000e+02,1.01243e+02,2.85000e+02,1.06144e+02,2.85000e+02,1.25322e+02,2.85000e+02,1.28384e+02,2.85000e+02,1.14339e+02,
2.90000e+02,9.23507e+01,2.90000e+02,5.87878e+01,2.90000e+02,1.21353e+02,2.90000e+02,1.21381e+02,2.90000e+02,1.13346e+02,
2.95000e+02,8.06218e+01,2.95000e+02,7.82247e+01,2.95000e+02,1.16127e+02,2.95000e+02,1.18429e+02,2.95000e+02,1.05505e+02,
3.00000e+02,6.66328e+01,3.00000e+02,7.35286e+01,3.00000e+02,1.02995e+02,3.00000e+02,1.16024e+02,3.00000e+02,1.04206e+02,
3.05000e+02,6.30513e+01,3.05000e+02,9.72948e+01,3.05000e+02,8.58767e+01,3.05000e+02,1.00115e+02,3.05000e+02,9.13743e+01,
3.10000e+02,6.23928e+01,3.10000e+02,5.98479e+01,3.10000e+02,6.34896e+01,3.10000e+02,7.29632e+01,3.10000e+02,6.41983e+01,
3.15000e+02,5.90853e+01,3.15000e+02,7.33690e+01,3.15000e+02,5.25772e+01,3.15000e+02,7.83551e+01,3.15000e+02,5.52326e+01,
3.20000e+02,3.05762e+01,3.20000e+02,7.66927e+00,3.20000e+02,4.00319e+01,3.20000e+02,3.35238e+01,3.20000e+02,4.46067e+01,
3.25000e+02,3.15270e+01,3.25000e+02,2.42311e+01,3.25000e+02,1.40053e+01,3.25000e+02,1.45611e+01,3.25000e+02,1.63395e+01,
3.30000e+02,2.93771e+01,3.30000e+02,2.08017e+01,3.30000e+02,1.59147e+01,3.30000e+02,1.58388e+01,3.30000e+02,8.42841e+00,
3.35000e+02,2.24094e+01,3.35000e+02,1.41000e+01,3.35000e+02,1.71278e+01,3.35000e+02,1.49569e+01,3.35000e+02,1.03798e+01,
